Pressure,Height,Temperature,Spc Humidity
98260,315,291.44,0.0121167
98109,328.3,292.16,0.0124738
97981,339.5,293.04,0.0129193
97856,350.6,293.69,0.0130516
97745,360.4,294.23,0.013025
97635,370.2,294.81,0.012883
97516,380.8,295.31,0.0126062
97398,391.3,295.75,0.0123502
97293,400.7,296.07,0.0122454
97180,410.9,296.35,0.0122283
97072,420.7,296.57,0.0122106
96976,429.3,296.74,0.0121758
96886,437.4,296.93,0.0121637
96798,445.4,297.13,0.0121047
96683,455.8,297.41,0.0119952
96566,466.5,297.66,0.011864
96464,475.7,297.8,0.0117472
96346,486.5,297.94,0.0113513
96218,498.2,298.05,0.0108126
96090,509.8,298.07,0.0105484
95977,520.1,298.05,0.0104238
95875,529.5,298.03,0.0103466
95777,538.5,298.04,0.0103032
95684,547,298.08,0.0103132
95598,554.9,298.13,0.0103902
95507,563.2,298.18,0.0104411
95400,573.1,298.18,0.0103507
95296,582.7,298.14,0.0103214
95194,592.1,298.07,0.0103596
95092,601.5,297.99,0.010432
94983,611.5,297.91,0.0104851
94884,620.7,297.81,0.0104892
94787,629.6,297.72,0.0105068
94683,639.3,297.63,0.0105252
94585,648.4,297.55,0.0105431
94485,657.7,297.46,0.0105404
94383,667.2,297.38,0.0105381
94278,676.9,297.3,0.0105498
94173,686.7,297.22,0.0105962
94053,697.8,297.1,0.0106724
93931,709.2,296.99,0.0107563
93809,720.6,296.88,0.0108267
93705,730.2,296.77,0.0109026
93615,738.6,296.69,0.010963
93517,747.8,296.61,0.0110175
93403,758.4,296.51,0.0110526
93306,767.5,296.44,0.0110209
93220,775.6,296.39,0.0109737
93138,783.3,296.34,0.0109334
93055,791,296.28,0.0109218
92962,799.8,296.21,0.0109042
92861,809.3,296.13,0.0108734
92757,819.1,296.07,0.0108218
92655,828.7,296,0.0107421
92552,838.3,295.94,0.0106281
92443,848.6,295.89,0.0104883
92341,858.2,295.83,0.0103902
92241,867.7,295.78,0.0103198
92138,877.4,295.72,0.0102367
92018,888.7,295.67,0.0101092
91876,902.2,295.6,0.0099724
91739,915.2,295.53,0.00988229
91628,925.8,295.45,0.00984207
91523,935.7,295.37,0.00982084
91416,945.9,295.28,0.00981286
91306,956.3,295.2,0.0098247
91195,966.9,295.11,0.00982367
91093,976.6,295.03,0.00982818
90989,986.6,294.94,0.00984596
90879,997.1,294.83,0.00983834
90763,1008.2,294.73,0.00983788
90642,1019.8,294.62,0.00985104
90528,1030.6,294.52,0.00987656
90414,1041.6,294.42,0.00994154
90287,1053.8,294.31,0.0100018
90162,1065.7,294.2,0.0100289
90056,1075.9,294.11,0.010074
89941,1087.1,294.01,0.0101471
89835,1097.3,293.92,0.0102129
89724,1107.9,293.84,0.0103001
89599,1120.1,293.74,0.0103691
89496,1129.9,293.65,0.0104153
89402,1139.1,293.59,0.0104401
89287,1150.2,293.51,0.0104604
89187,1159.9,293.43,0.0104791
89095,1168.8,293.35,0.0104968
88993,1178.7,293.28,0.0105366
88892,1188.5,293.2,0.0105625
88789,1198.5,293.12,0.0105888
88682,1209,293.05,0.0106156
88571,1219.7,292.98,0.0106429
88449,1231.7,292.89,0.0106366
88334,1242.9,292.78,0.0106224
88242,1251.9,292.69,0.0106125
88145,1261.3,292.61,0.0106173
88036,1272,292.53,0.0106445
87941,1281.3,292.48,0.0106911
87846,1290.7,292.42,0.010731
87745,1300.6,292.37,0.0108072
87643,1310.5,292.36,0.0109055
87522,1322.4,292.35,0.0107921
87413,1333.2,292.34,0.0104758
87325,1341.8,292.33,0.0102193
87238,1350.4,292.3,0.0100814
87155,1358.6,292.25,0.0101649
87063,1367.7,292.19,0.010373
86981,1375.8,292.16,0.0104448
86908,1383.1,292.15,0.0103916
86824,1391.4,292.12,0.0103741
86721,1401.6,292.1,0.0103453
86617,1411.9,292.14,0.0102078
86526,1421,292.19,0.00997054
86436,1429.9,292.22,0.00966677
86352,1438.3,292.22,0.00949049
86264,1447.1,292.19,0.00943049
86181,1455.3,292.15,0.00935148
86099,1463.5,292.14,0.00916153
86003,1473.1,292.15,0.00888616
85894,1484,292.11,0.00882572
85786,1494.9,292.03,0.00879518
85670,1506.5,291.97,0.00863029
85557,1517.8,291.9,0.0084678
85459,1527.7,291.87,0.00826708
85370,1536.6,291.83,0.00821958
85295,1544.2,291.78,0.00826611
85216,1552.1,291.73,0.00824568
85114,1562.4,291.66,0.00820512
85005,1573.3,291.58,0.00815987
84895,1584.5,291.52,0.00817601
84785,1595.6,291.47,0.00811991
84679,1606.3,291.44,0.00793796
84577,1616.7,291.45,0.00762719
84480,1626.5,291.44,0.00738767
84399,1634.7,291.41,0.00730344
84318,1642.9,291.35,0.00731047
84221,1652.8,291.27,0.00725342
84109,1664.2,291.17,0.00714836
84009,1674.3,291.12,0.00700462
83917,1683.8,291.09,0.00681989
83815,1694.1,291.04,0.00658478
83721,1703.7,291.04,0.0062675
83631,1712.9,291.07,0.005888
83533,1722.9,291.1,0.00551769
83437,1732.8,291.15,0.00507953
83356,1741.1,291.2,0.00468184
83273,1749.6,291.27,0.00425864
83178,1759.3,291.35,0.00379906
83075,1769.9,291.46,0.00334129
82979,1779.8,291.57,0.00302865
82886,1789.4,291.64,0.00289829
82784,1800,291.71,0.00275618
82676,1811.1,291.74,0.00262048
82579,1821.1,291.73,0.00252754
82482,1831.2,291.73,0.00242424
82365,1843.4,291.76,0.0022944
82242,1856.2,291.79,0.00210986
82142,1866.5,291.85,0.00191188
82042,1877,291.98,0.00164959
81941,1887.5,292.1,0.00146405
81859,1896.1,292.12,0.00141432
81778,1904.6,292.12,0.00138898
81694,1913.3,292.1,0.00138235
81619,1921.2,292.08,0.00142083
81540,1929.5,292.06,0.00150682
81465,1937.3,292.03,0.0016224
81395,1944.7,292,0.00174435
81319,1952.7,291.95,0.00187914
81235,1961.5,291.89,0.00195499
81155,1970,291.83,0.00199009
81085,1977.4,291.79,0.00203849
81009,1985.4,291.73,0.00212326
80931,1993.6,291.67,0.00227145
80856,2001.5,291.62,0.00241737
80778,2009.8,291.57,0.00249858
80703,2017.7,291.51,0.00254619
80632,2025.2,291.45,0.00259247
80554,2033.5,291.39,0.0026459
80473,2042.2,291.33,0.0026879
80392,2050.8,291.27,0.00272205
80309,2059.6,291.2,0.00273967
80226,2068.4,291.14,0.00274674
80144,2077.1,291.08,0.00275168
80061,2085.9,291.01,0.0027759
79978,2094.8,290.95,0.00280033
79900,2103.2,290.88,0.00280523
79819,2111.7,290.81,0.00282765
79741,2120.1,290.74,0.00286556
79664,2128.3,290.68,0.00287496
79586,2136.7,290.61,0.00286008
79504,2145.4,290.55,0.00286082
79422,2154.3,290.47,0.00288815
79335,2163.6,290.4,0.00293165
79252,2172.5,290.33,0.00297561
79182,2180.1,290.28,0.00298282
79108,2188,290.23,0.00296731
79024,2197,290.17,0.00294091
78940,2206.1,290.11,0.00292596
78863,2214.4,290.08,0.00290187
78787,2222.5,290.04,0.00282944
78697,2232.3,289.99,0.00276981
78598,2243.1,289.91,0.00276043
78512,2252.3,289.86,0.00275276
78426,2261.7,289.82,0.00272177
78336,2271.4,289.78,0.00269541
78228,2283.1,289.73,0.00268239
78123,2294.5,289.65,0.00266932
78037,2303.9,289.59,0.00264739
77943,2314.1,289.55,0.00262181
77845,2324.7,289.49,0.00259252
77757,2334.3,289.43,0.00257726
77671,2343.8,289.4,0.00254004
77578,2353.9,289.35,0.00247035
77503,2362.1,289.32,0.00243608
77441,2368.9,289.28,0.00241891
77380,2375.6,289.23,0.00240182
77305,2383.8,289.16,0.0023928
77223,2392.8,289.08,0.00238215
77146,2401.3,289.02,0.00236951
77062,2410.5,288.96,0.00235343
76980,2419.5,288.9,0.00232447
76900,2428.4,288.86,0.00227765
76816,2437.5,288.82,0.00223177
76723,2447.8,288.76,0.00220271
76633,2457.8,288.7,0.00218257
76562,2465.6,288.68,0.00216379
76490,2473.6,288.64,0.00214517
76414,2482,288.58,0.00213192
76337,2490.5,288.51,0.00214089
76265,2498.5,288.45,0.00218261
76190,2506.8,288.38,0.00221631
76121,2514.5,288.31,0.00221656
76053,2522,288.27,0.00218694
75981,2530,288.24,0.00215951
75900,2539,288.19,0.00214289
75821,2547.9,288.13,0.00212634
75740,2556.9,288.08,0.00209983
75667,2565,288.04,0.0020734
75593,2573.3,287.99,0.00205883
75515,2582,287.93,0.00204939
75440,2590.3,287.89,0.00203991
75370,2598.2,287.85,0.00203034
75296,2606.4,287.81,0.00202092
75228,2614.1,287.78,0.00200975
75160,2621.7,287.75,0.00199703
75093,2629.2,287.73,0.00197796
75020,2637.4,287.72,0.001945
74940,2646.4,287.72,0.00191116
74860,2655.5,287.73,0.00188854
74783,2664.1,287.72,0.00186912
74705,2672.9,287.72,0.00185442
74637,2680.6,287.69,0.00184107
74570,2688.2,287.65,0.0018248
74496,2696.5,287.62,0.00181327
74419,2705.3,287.58,0.00179307
74347,2713.4,287.55,0.00176716
74281,2720.9,287.52,0.00173574
74212,2728.7,287.48,0.00172459
74144,2736.5,287.43,0.00173467
74075,2744.3,287.37,0.00173914
74007,2752,287.32,0.00173788
73944,2759.2,287.27,0.00173508
73878,2766.7,287.21,0.00173237
73803,2775.3,287.15,0.00172703
73726,2784.1,287.1,0.0017147
73657,2791.9,287.06,0.00169389
73590,2799.6,287.02,0.00167602
73516,2808,286.98,0.00166669
73446,2816.1,286.94,0.00165868
73376,2824.1,286.89,0.00164935
73304,2832.3,286.84,0.00164146
73234,2840.3,286.81,0.00162549
73162,2848.6,286.76,0.00160837
73085,2857.4,286.71,0.00159415
73007,2866.4,286.66,0.00157876
72935,2874.7,286.6,0.00156466
72870,2882.2,286.55,0.0015544
72805,2889.6,286.49,0.00154548
72736,2897.6,286.44,0.00153669
72664,2905.9,286.38,0.00152674
72592,2914.3,286.32,0.00151558
72520,2922.5,286.26,0.00150199
72449,2930.8,286.2,0.00148973
72379,2938.9,286.14,0.00148247
72313,2946.5,286.09,0.00147888
72246,2954.3,286.05,0.00146915
72175,2962.6,286.03,0.0014474
72100,2971.3,286.02,0.00142244
72026,2979.8,286.02,0.00140844
71956,2988,285.99,0.00139919
71886,2996.1,285.96,0.00138299
71814,3004.5,285.92,0.00136584
71742,3012.9,285.89,0.0013432
71674,3020.9,285.86,0.00133091
71605,3029,285.84,0.00135146
71532,3037.6,285.83,0.00140392
71461,3045.9,285.83,0.00151405
71393,3053.8,285.8,0.00159705
71320,3062.3,285.74,0.00165527
71246,3071.1,285.68,0.00171825
71174,3079.5,285.61,0.00177603
71100,3088.3,285.54,0.00181619
71018,3097.9,285.47,0.00185434
70944,3106.6,285.4,0.00189146
70873,3115,285.32,0.00191041
70805,3123.1,285.25,0.00191535
70740,3130.6,285.19,0.00191711
70669,3139.1,285.12,0.00192217
70598,3147.4,285.04,0.00193037
70534,3155,284.97,0.00194633
70467,3163,284.9,0.00196888
70398,3171.1,284.82,0.00200146
70328,3179.4,284.75,0.00203126
70251,3188.7,284.67,0.00208515
70177,3197.4,284.61,0.00216103
70106,3205.9,284.55,0.00222139
70032,3214.6,284.47,0.00234818
69965,3222.6,284.41,0.00253087
69900,3230.4,284.36,0.00266252
69834,3238.3,284.3,0.00276105
69763,3246.8,284.23,0.00280536
69691,3255.3,284.17,0.00274937
69615,3264.4,284.12,0.00269666
69537,3273.8,284.05,0.00270394
69463,3282.6,283.99,0.00273034
69387,3291.8,283.94,0.00277227
69315,3300.4,283.9,0.00281021
69244,3308.9,283.85,0.00285305
69170,3317.8,283.8,0.00290114
69099,3326.3,283.74,0.00297759
69025,3335.3,283.67,0.00309421
68946,3344.8,283.62,0.00313646
68868,3354.2,283.58,0.00308204
68790,3363.7,283.52,0.00303791
68710,3373.3,283.46,0.0029758
68631,3382.9,283.38,0.00287174
68562,3391.2,283.32,0.00282768
68493,3399.6,283.24,0.00281723
68422,3408.2,283.16,0.00281794
68349,3417.1,283.08,0.0028121
68273,3426.3,283,0.0027888
68196,3435.7,282.93,0.00276789
68112,3445.9,282.84,0.00275607
68030,3455.9,282.77,0.00272697
67956,3465,282.74,0.00268932
67875,3474.8,282.71,0.00262733
67793,3484.8,282.66,0.00258095
67722,3493.5,282.61,0.00255104
67639,3503.7,282.58,0.00251587
67543,3515.4,282.52,0.00250944
67448,3527,282.44,0.00252701
67353,3538.8,282.36,0.00257111
67251,3551.3,282.28,0.00262243
67153,3563.3,282.21,0.00265343
67068,3573.8,282.13,0.00264839
67000,3582.3,282.07,0.00263432
66934,3590.3,282.02,0.00261609
66873,3598,281.96,0.00261018
66819,3604.5,281.91,0.00263726
66763,3611.5,281.85,0.00270505
66700,3619.4,281.79,0.00280327
66635,3627.4,281.72,0.00291391
66570,3635.4,281.66,0.00303557
66505,3643.6,281.59,0.00312507
66442,3651.3,281.52,0.00318452
66371,3660.2,281.45,0.00324035
66300,3669,281.37,0.00328686
66238,3676.8,281.31,0.00333353
66173,3684.8,281.25,0.00340718
66109,3692.8,281.21,0.00346885
66040,3701.4,281.19,0.00341667
65970,3710.1,281.15,0.00336524
65903,3718.6,281.08,0.00366357
65837,3726.8,280.99,0.00414867
65778,3734.2,280.9,0.00440723
65720,3741.4,280.81,0.00449469
65657,3749.4,280.72,0.00453284
65587,3758.1,280.63,0.00456154
65516,3767,280.54,0.00463535
65449,3775.5,280.45,0.00476296
65386,3783.5,280.36,0.00492991
65328,3790.7,280.26,0.00509418
65273,3797.7,280.19,0.00517447
65214,3805.2,280.11,0.00518681
65153,3812.8,280.04,0.00518783
65089,3820.9,279.97,0.00516996
65026,3828.8,279.91,0.00511784
64964,3836.6,279.88,0.00496932
64902,3844.5,279.87,0.00476384
64831,3853.5,279.86,0.00453584
64757,3862.9,279.84,0.00440985
64679,3872.8,279.78,0.00432624
64590,3884.1,279.72,0.00422873
64502,3895.3,279.64,0.00418035
64418,3905.9,279.58,0.00415106
64330,3917.2,279.49,0.00412533
64244,3928.2,279.4,0.0041152
64155,3939.5,279.31,0.00408973
64072,3950.1,279.22,0.00404244
63986,3961.1,279.17,0.00400192
63888,3973.7,279.07,0.0039746
63792,3986,278.96,0.00395033
63696,3998.3,278.84,0.00393219
63602,4010.4,278.71,0.00391999
63513,4021.8,278.61,0.00389561
63420,4033.8,278.51,0.00388642
63317,4047.1,278.38,0.00388084
63228,4058.6,278.28,0.00387147
63139,4070.1,278.19,0.00386211
63050,4081.7,278.09,0.00385277
62973,4091.6,277.99,0.00384273
62907,4100.2,277.91,0.00383204
62847,4107.9,277.83,0.00382396
62783,4116.2,277.76,0.00381905
62717,4124.8,277.69,0.00380843
62654,4133.1,277.61,0.00378892
62592,4141,277.53,0.00377232
62527,4149.5,277.45,0.00376176
62459,4158.3,277.35,0.00375429
62392,4167,277.27,0.00374677
62323,4176.1,277.19,0.00374515
62249,4185.8,277.09,0.00373808
62186,4194,277.01,0.00373611
62124,4202.1,276.93,0.00373983
62058,4210.7,276.84,0.00374669
61996,4218.8,276.77,0.00374755
61930,4227.5,276.69,0.00373425
61868,4235.6,276.61,0.00372362
61812,4243,276.53,0.00372699
61756,4250.3,276.46,0.00373037
61700,4257.7,276.38,0.00373088
61638,4265.9,276.3,0.00373463
61572,4274.5,276.22,0.00373863
61501,4283.9,276.13,0.00374006
61435,4292.5,276.05,0.00373831
61370,4301.1,275.97,0.0037365
61307,4309.4,275.88,0.00372882
61245,4317.7,275.8,0.0037211
61175,4327,275.71,0.0037196
61108,4335.7,275.63,0.00372656
61041,4344.7,275.54,0.00372489
60970,4354.1,275.45,0.00372347
60908,4362.3,275.36,0.00373014
60850,4369.9,275.31,0.00374235
60791,4377.8,275.22,0.0037402
60728,4386.1,275.13,0.00372678
60665,4394.6,275.04,0.00370767
60595,4403.8,274.96,0.00370622
60523,4413.4,274.86,0.0037135
60457,4422.2,274.78,0.0037233
60382,4432.3,274.69,0.00372504
60298,4443.4,274.59,0.0037101
60210,4455.2,274.5,0.00365565
60113,4468.3,274.41,0.00359127
60021,4480.6,274.3,0.00355513
59951,4490,274.22,0.00353722
59876,4500,274.17,0.00349512
59778,4513.2,274.11,0.00338539
59694,4524.5,274.1,0.0032396
59634,4532.6,274.13,0.00312023
59583,4539.4,274.24,0.00295945
59533,4546.2,274.35,0.00280605
59484,4552.8,274.39,0.00272223
59432,4559.8,274.43,0.00259035
59376,4567.4,274.5,0.00243266
59315,4575.6,274.54,0.00233644
59252,4584.3,274.57,0.00225288
59188,4593,274.62,0.00218631
59128,4601.1,274.66,0.00212484
59067,4609.5,274.67,0.00206665
59006,4617.7,274.63,0.00202656
58950,4625.4,274.58,0.00199853
58895,4632.9,274.54,0.00197081
58834,4641.3,274.49,0.00194363
58774,4649.5,274.46,0.00191198
58719,4657,274.43,0.00189161
58666,4664.2,274.4,0.00187606
58615,4671.3,274.38,0.001859
58563,4678.4,274.38,0.00182833
58500,4687.1,274.45,0.00171735
58430,4696.7,274.61,0.00154041
58366,4705.4,274.73,0.00146895
58306,4713.8,274.76,0.0014667
58243,4722.4,274.72,0.00147583
58185,4730.5,274.66,0.00149124
58128,4738.3,274.62,0.00150677
58072,4746.2,274.56,0.00151984
58019,4753.5,274.5,0.00153032
57968,4760.6,274.46,0.00153951
57915,4767.8,274.41,0.00154092
57864,4775,274.37,0.00153572
57813,4782,274.32,0.00152924
57760,4789.5,274.26,0.00152413
57708,4796.6,274.23,0.00151255
57658,4803.6,274.27,0.00147808
57609,4810.4,274.32,0.00143935
57558,4817.5,274.37,0.00138717
57507,4824.6,274.51,0.00126567
57453,4832.2,274.62,0.00117839
57395,4840.4,274.62,0.00115503
57339,4848.2,274.57,0.00113803
57285,4855.8,274.52,0.00111825
57232,4863.3,274.46,0.00110556
57175,4871.3,274.4,0.00110472
57116,4879.6,274.33,0.00110099
57059,4887.5,274.26,0.00109724
57000,4896,274.18,0.00109257
56937,4904.8,274.1,0.00108512
56875,4913.5,274.03,0.00107674
56819,4921.4,273.96,0.00106925
56766,4928.9,273.91,0.00105893
56713,4936.4,273.87,0.00104314
56653,4944.9,273.83,0.00101135
56594,4953.3,273.84,0.000962188
56536,4961.4,273.84,0.000930083
56481,4969.3,273.82,0.000914402
56428,4976.9,273.8,0.000887648
56374,4984.4,273.78,0.000863955
56317,4992.6,273.78,0.000816775
56261,5000.6,273.78,0.000773321
56205,5008.5,273.78,0.000736682
56143,5017.4,273.81,0.00066931
56078,5026.7,273.87,0.000585167
56015,5035.7,273.92,0.000538587
55941,5046.3,274.01,0.00048794
55866,5057.2,274.04,0.000443343
55803,5066.1,274.01,0.000424908
55748,5074,273.96,0.000413905
55699,5081.2,273.92,0.000405482
55647,5088.6,273.86,0.000397235
55593,5096.4,273.79,0.000393365
55539,5104.2,273.73,0.000389911
55480,5112.7,273.66,0.000381622
55421,5121.2,273.6,0.000374594
55366,5129.1,273.54,0.0003702
55316,5136.5,273.49,0.000361871
55262,5144.2,273.44,0.000356546
55187,5155.1,273.38,0.000346585
55101,5167.6,273.39,0.00031297
55024,5178.8,273.5,0.000276065
54957,5188.5,273.55,0.000259792
54907,5195.8,273.51,0.000257391
54848,5204.5,273.46,0.000252718
54777,5214.8,273.4,0.00024414
54713,5224.2,273.39,0.000232662
54653,5233,273.42,0.000218241
54598,5241,273.45,0.000209574
54544,5249,273.43,0.000206746
54492,5256.6,273.39,0.000206512
54444,5263.6,273.35,0.000206263
54394,5271,273.29,0.000205808
54336,5279.5,273.22,0.000205598
54275,5288.5,273.14,0.000204757
54214,5297.4,273.08,0.000203283
54158,5305.8,273.04,0.000199284
54099,5314.5,273.01,0.000192318
54040,5323.2,272.96,0.000186552
53983,5331.6,272.91,0.000184597
53922,5340.6,272.84,0.000185
53860,5349.8,272.75,0.000185408
53793,5359.7,272.67,0.000185442
53729,5369.2,272.58,0.000185077
53665,5378.8,272.49,0.000184907
53603,5388,272.41,0.000184925
53548,5396.2,272.32,0.00018453
53489,5404.9,272.24,0.000184733
53431,5413.6,272.16,0.000185518
53368,5422.9,272.07,0.000186129
53313,5431.2,271.99,0.000185732
53260,5439.2,271.92,0.000184743
53206,5447.2,271.85,0.000184152
53155,5454.8,271.79,0.000183745
53102,5462.8,271.73,0.000184122
53046,5471.2,271.66,0.000184121
52991,5479.4,271.6,0.000183341
52933,5488.2,271.52,0.000182575
52872,5497.2,271.46,0.000181629
52811,5506.4,271.4,0.000181071
52752,5515.3,271.35,0.000179365
52697,5523.6,271.3,0.000176533
52640,5532.2,271.23,0.00017523
52581,5541.1,271.17,0.000176172
52522,5550,271.1,0.000177684
52463,5559,271.03,0.000178072
52402,5568.2,270.96,0.000179226
52349,5576.2,270.89,0.000181125
52298,5583.9,270.82,0.000182649
52240,5592.8,270.74,0.000182851
52178,5602.2,270.65,0.000183067
52121,5610.8,270.57,0.000183849
52066,5619.2,270.5,0.000184043
52010,5627.6,270.43,0.000183075
51955,5636.1,270.36,0.000181916
51901,5644.3,270.29,0.000181527
51850,5652.1,270.22,0.000181897
51800,5659.7,270.16,0.000182845
51742,5668.6,270.09,0.000183826
51683,5677.6,270.02,0.000185207
51626,5686.3,269.94,0.00018758
51565,5695.6,269.86,0.000187999
51510,5704.1,269.78,0.000185239
51460,5711.8,269.72,0.000182497
51406,5720,269.65,0.000180953
51355,5727.8,269.59,0.000180557
51300,5736.3,269.52,0.000181519
51236,5746.2,269.44,0.000182904
51178,5755.1,269.35,0.0001835
51125,5763.3,269.27,0.0001833
51067,5772.3,269.2,0.000184287
51011,5780.9,269.11,0.000184685
50958,5789,269.03,0.000184094
50904,5797.4,268.95,0.000183121
50846,5806.3,268.87,0.000183135
50789,5815.2,268.79,0.000183534
50737,5823.3,268.71,0.000183333
50679,5832.2,268.64,0.000183542
50622,5841.1,268.55,0.000183553
50568,5849.6,268.47,0.000183554
50513,5858.1,268.39,0.000183169
50454,5867.2,268.31,0.000183188
50394,5876.6,268.23,0.000183406
50341,5884.8,268.16,0.000183209
50291,5892.7,268.09,0.000183391
50238,5901,268,0.000183584
50180,5910,267.92,0.0001836
50120,5919.3,267.84,0.000183041
50058,5929,267.74,0.000182684
49997,5938.6,267.66,0.000181551
49940,5947.5,267.61,0.000179835
49882,5956.6,267.54,0.000178327
49827,5965.4,267.48,0.000176256
49775,5973.5,267.45,0.000170512
49726,5981.2,267.45,0.000161251
49678,5988.7,267.45,0.000149666
49629,5996.4,267.48,0.00013437
49578,6004.5,267.52,0.000117485
49523,6013.2,267.54,0.000103945
49468,6022,267.54,9.57585e-05
49405,6032,267.54,8.94869e-05
49341,6042.1,267.5,8.36875e-05
49280,6051.7,267.46,8.08724e-05
49219,6061.4,267.4,8.04175e-05
49158,6071.2,267.32,7.97818e-05
49103,6079.9,267.26,7.72541e-05
49048,6088.6,267.24,7.37698e-05
48991,6097.7,267.21,7.37701e-05
48935,6106.7,267.17,7.64551e-05
48883,6115,267.13,7.73333e-05
48832,6123.2,267.08,7.73249e-05
48775,6132.4,267.02,7.73258e-05
48721,6141.1,266.97,7.73223e-05
48669,6149.3,266.94,7.6342e-05
48616,6157.8,266.89,7.32284e-05
